radial length  r (m),twist angle beta (degree),chord length c (m)
4.5,20,1.63
5.5,16.3,1.597
6.5,13,1.54
7.5,10.05,1.481
8.5,7.45,1.42
9.5,5.85,1.356
10.5,4.85,1.294
11.5,4,1.229
12.5,3.15,1.163
13.5,2.6,1.095
14.5,2.02,1.026
15.5,1.36,0.955
16.5,0.77,0.881
17.5,0.33,0.806
18.5,0.14,0.705
19.5,0.05,0.545
20.3,0.02,0.265
